"Wavelength","Rad_mean","Rad_sd"
350,0.00050345518469112,3.40697191276436e-05
351,0.000514558899914846,3.37953570978575e-05
352,0.000535209831083193,3.29745581296401e-05
353,0.000549665806465782,3.38003753429666e-05
354,0.000550285323522985,3.48171521315438e-05
355,0.000562477323168423,3.25110274212646e-05
356,0.000579822124331258,3.2264105156549e-05
357,0.00059418617625488,3.40935513301693e-05
358,0.000601064785732888,3.30443313305764e-05
359,0.000621737976558507,3.10672973309062e-05
360,0.000645215760916472,3.11569044131204e-05
361,0.000666584774618968,3.33943448405195e-05
362,0.000688700236030854,3.28980177126746e-05
363,0.00070808515988756,3.13428875477248e-05
364,0.000728819853859022,3.17448128512626e-05
365,0.000751455371268094,3.26063677549661e-05
366,0.000767302591702901,3.16264083677603e-05
367,0.000785627822973765,3.14033075503529e-05
368,0.000804569044266827,3.22596748047481e-05
369,0.000819551011431031,3.435691918174e-05
370,0.000829910209751688,3.39402554396753e-05
371,0.000842140953056514,3.38336924976429e-05
372,0.000854128536884673,3.44573646238178e-05
373,0.000859664175310172,3.44695330220416e-05
374,0.000870015698485076,3.46357588707348e-05
375,0.000880860133562237,3.52434314140147e-05
376,0.000889550299965777,3.65234090863438e-05
377,0.000898572636768222,3.56888400350042e-05
378,0.000907227510935627,3.41392873824037e-05
379,0.000916344560799189,3.45760952724469e-05
380,0.000925669012824073,3.59413542563821e-05
381,0.000929955536848865,3.58803875245501e-05
382,0.000935585864936002,3.62061397731507e-05
383,0.000944658940308727,3.71023913514475e-05
384,0.000955925394198857,3.74809152363184e-05
385,0.000964772123959847,3.66385200786308e-05
386,0.00098135817644652,3.71614903990565e-05
387,0.00100681750313379,3.89756844852379e-05
388,0.00102964612154756,3.81307184539268e-05
389,0.00104853237804491,3.85044336288487e-05
390,0.00106996849772986,3.98324277652459e-05
391,0.0010991282761097,4.0400523816625e-05
392,0.00113185771484859,3.95443666551928e-05
393,0.00117246865108609,4.07542094696575e-05
394,0.00121795066213235,4.4516959512627e-05
395,0.00126583870034665,4.76916469486716e-05
396,0.00134030452463776,4.6964723397763e-05
397,0.0014199416632764,4.70338102554078e-05
398,0.00149380561290309,4.96307810343554e-05
399,0.00156767173786648,5.20523332535607e-05
400,0.0016412552932743,5.28995909296666e-05
401,0.00170694806217216,5.41433023286306e-05
402,0.00175845789443702,5.69946518237112e-05
403,0.00179778301715851,5.77730350993237e-05
404,0.0018280344621744,5.90935322202357e-05
405,0.0018523359335959,6.12663308960822e-05
406,0.00187309012492187,6.3671988758013e-05
407,0.00188784984406084,6.37605823660594e-05
408,0.00191056751739234,6.4023199354421e-05
409,0.00194059662264772,6.53599686704657e-05
410,0.00196243277215399,6.69085651441358e-05
411,0.00198571494198404,6.61875759472108e-05
412,0.00201079278532416,6.58537271021785e-05
413,0.00203484551678412,6.64467859980078e-05
414,0.00205191766656935,6.71153243652772e-05
415,0.00206098906882107,6.77564603994445e-05
416,0.0020663360862527,6.89822260120293e-05
417,0.00207376997242682,7.00861769933556e-05
418,0.00208435336570255,7.02707456992375e-05
419,0.0020899030151777,7.05920004323476e-05
420,0.00208943567657843,7.11827649498093e-05
421,0.00208975897892378,7.08491255754073e-05
422,0.00208626406104304,7.02605688804398e-05
423,0.00207910820515826,6.98626446551014e-05
424,0.00206805026368238,6.9699434891611e-05
425,0.00204955092607997,6.94629010801728e-05
426,0.00203553352551535,6.92823990113146e-05
427,0.0020277942228131,6.91077329498151e-05
428,0.00202547104866244,6.89146385849505e-05
429,0.00204130372451618,6.94768780230763e-05
430,0.00206525894324295,6.97347528094606e-05
431,0.00209472818276845,6.98548502174245e-05
432,0.00213778287847526,7.05644171110705e-05
433,0.00218838301394135,7.16523106095148e-05
434,0.00223887153062969,7.39517002982137e-05
435,0.00228379014926031,7.71896273529745e-05
436,0.00232459246739745,7.85866473804022e-05
437,0.0023640801361762,7.96529152980681e-05
438,0.00240336246229708,8.10106507778016e-05
439,0.00244287124788389,8.26469613908634e-05
440,0.00248674043314531,8.32866531542268e-05
441,0.00252862553205341,8.40814180649865e-05
442,0.00256806451128796,8.53496711330936e-05
443,0.00261466288845986,8.55624547490548e-05
444,0.00265964997885749,8.63320262127397e-05
445,0.0026995785580948,8.6812628232016e-05
446,0.00273532120976597,8.63439321297988e-05
447,0.00277842909051105,8.63648795631883e-05
448,0.00281450365623459,8.61412008876124e-05
449,0.00284107592143118,8.62113299507948e-05
450,0.00286461892072111,8.79630752603174e-05
451,0.00288540955167264,8.92739462093348e-05
452,0.0029003110495396,9.03526451270237e-05
453,0.00291028201626614,9.15477095720906e-05
454,0.00292425785819069,9.30353913098425e-05
455,0.0029417958445847,9.41771885879153e-05
456,0.0029610038837418,9.49149387721975e-05
457,0.00298009748617187,9.50615585504264e-05
458,0.00300329792266712,9.50238418002003e-05
459,0.00302284060418606,9.49789287750808e-05
460,0.00303576263645664,9.51924453209431e-05
461,0.00304457185138017,9.56785530329531e-05
462,0.00305048913881183,9.50882210410422e-05
463,0.00305187458684668,9.41674637929174e-05
464,0.00304834969434887,9.35069555855918e-05
465,0.00304371768375859,9.25585170898427e-05
466,0.00303842471819371,9.11767450944396e-05
467,0.00303631391748786,9.01575548198402e-05
468,0.00304247918259352,9.06343906946409e-05
469,0.00305991224711761,9.17866469942306e-05
470,0.00307998327864334,9.30966632957648e-05
471,0.00309765859786421,9.44627381391224e-05
472,0.00311443552840501,9.63623384941372e-05
473,0.00313313272362575,9.82446949074425e-05
474,0.00315173147572204,9.98209293290091e-05
475,0.0031690836478956,0.000100899763597053
476,0.00319242368685082,0.000102369528854615
477,0.0032158409031108,0.000103432634189362
478,0.00323671714682132,0.000104138990486393
479,0.00325404222123325,0.000104791263205861
480,0.00325878521986306,0.000103326727293969
481,0.00324669127026573,0.000101983921294631
482,0.00321634772326797,0.0001018297761522
483,0.00316756544960663,0.000101086605979132
484,0.00312848216760904,0.000100449990083499
485,0.00310851537436247,0.000100023674432681
486,0.00310983074456453,9.93228662919957e-05
487,0.00313902031769976,9.89739705293288e-05
488,0.00318273517629132,9.95053558886936e-05
489,0.00322929102974012,0.000100417856984072
490,0.00327045613899827,9.99423878697658e-05
491,0.00330814037844539,0.000100403298653876
492,0.00334338411409408,0.000100987749090451
493,0.00337722677877173,0.000100731964229433
494,0.00341212207404897,0.000100461680627804
495,0.00343641743995249,0.000100468120758237
496,0.00344990770705044,0.000100163172326296
497,0.00345879627717659,9.8812219583059e-05
498,0.00346184669667855,9.85386279098903e-05
499,0.00346990037942305,9.81512551289407e-05
500,0.00349290191335604,9.73160203508096e-05
501,0.00353782934183255,9.72309665555387e-05
502,0.00359693736536428,9.70686884161395e-05
503,0.00366798464953899,9.66749973760611e-05
504,0.00374817735422403,9.59669361962681e-05
505,0.0038268217924051,9.61292690338585e-05
506,0.00390655585471541,9.66571931575306e-05
507,0.00398981724120677,9.70176256212891e-05
508,0.00407826527534053,9.71793988210626e-05
509,0.00417552178353071,9.83546580486053e-05
510,0.00427708766330034,9.92153978749699e-05
511,0.00437691500037909,9.84001322027423e-05
512,0.00447046025004238,9.72650530755715e-05
513,0.0045474486136809,9.45309327112844e-05
514,0.00462137267179787,9.18231723885957e-05
515,0.00471926431450993,9.14759641879903e-05
516,0.0048629870545119,9.00935901514703e-05
517,0.00506827041506767,8.92902156680569e-05
518,0.00533518559858203,9.03250729869709e-05
519,0.00564502159971744,9.26747326915588e-05
520,0.00596396947279572,9.50276734679401e-05
521,0.0062770277056843,9.74267601486025e-05
522,0.00657134506106377,9.99249356707306e-05
523,0.00681549591384828,0.000100375974130518
524,0.00703040538821369,9.92678761156342e-05
525,0.00724921979382634,9.8436147552192e-05
526,0.00751152211613953,0.000100630140436276
527,0.00782537590153515,0.000104738303283673
528,0.00815201198402792,0.00011055360521344
529,0.00844410865101963,0.000116717307590131
530,0.00864923981204629,0.000119200781450654
531,0.00882168733514845,0.000121758542714087
532,0.00899450215883553,0.000125642751514267
533,0.00918604702688754,0.000130448459611525
534,0.00937910905666649,0.000136321211943598
535,0.00954529916867614,0.000141564644150578
536,0.00966195339895785,0.000145084384787665
537,0.00971325423568487,0.00014742174528622
538,0.00975279628485441,0.000148851179607949
539,0.00980557602457702,0.000150277957503141
540,0.00988686381652951,0.000152469894368963
541,0.0100131946709007,0.0001548668836452
542,0.0101602101605386,0.000158747105345432
543,0.010300455968827,0.000163025104022769
544,0.0104070953596383,0.000164801743702608
545,0.0104879857748747,0.000166172540427771
546,0.010559358952567,0.00016629351683144
547,0.0106336631849408,0.000165023042820942
548,0.0107116893548518,0.000164320507005796
549,0.0107848587781191,0.000164922629482305
550,0.0108462689537555,0.000165781987037394
551,0.0108905531223863,0.00016536474883713
552,0.0109211846794933,0.000165023407860221
553,0.010923839353025,0.000163932777833741
554,0.0108779946342111,0.000161878137268616
555,0.0107570154797286,0.000159523515284768
556,0.0105869152378291,0.000156257951635116
557,0.0104122070949525,0.00015299464105857
558,0.0102717933412641,0.000150786302321629
559,0.0101711018271744,0.000149911454863703
560,0.0100812069978565,0.000148987130071688
561,0.00997350273095071,0.000147835322875764
562,0.00982281223870814,0.000147013825090852
563,0.00962851166166365,0.000144756698818503
564,0.00941207805462182,0.00014100312774697
565,0.00919278330914676,0.000136391099622117
566,0.00897741256654263,0.000132528645380071
567,0.0087416761983186,0.000127729800723681
568,0.008487329387106,0.000122330255668593
569,0.00823373934347183,0.000117494355109924
570,0.00803159281052649,0.000114318686130593
571,0.00786839299835265,0.000111777903868603
572,0.00771415677946061,0.000109027201141282
573,0.00752504301723093,0.000105971554617933
574,0.00732338415738195,0.00010241862788614
575,0.00713535426277667,9.96418702364935e-05
576,0.00698257176857442,9.86364920643907e-05
577,0.00685823616478592,9.7515434957307e-05
578,0.00676732129976153,9.75444162676353e-05
579,0.00670619220566005,9.86893783769283e-05
580,0.00666249532345682,9.95169744694831e-05
581,0.00661547494586557,9.91104017420123e-05
582,0.00654617032315582,9.69931272066026e-05
583,0.00644794759526849,9.34895827286619e-05
584,0.00633759005833417,9.04381801968412e-05
585,0.00622452793922275,8.70701806856183e-05
586,0.00609670427720994,8.34395145769133e-05
587,0.00594190507102758,7.98334723289405e-05
588,0.00581206677202135,7.72167085280431e-05
589,0.00577504085097462,7.70941477543179e-05
590,0.00582712495326996,7.96034944496524e-05
591,0.00586853076051921,8.24939221526414e-05
592,0.00586489201616496,8.53312706386615e-05
593,0.00582936922460794,8.76097041391672e-05
594,0.00579020044021308,8.89572963161234e-05
595,0.0057553416416049,9.02176787299298e-05
596,0.00571129377000034,9.02242536022234e-05
597,0.0056566554158926,8.94728353777435e-05
598,0.00560045244917274,8.94756250771806e-05
599,0.00554298947751522,8.82854501579225e-05
600,0.00549302823655307,8.56854635278364e-05
601,0.00546110308077186,8.2548831496203e-05
602,0.00546225000172853,8.0837570329887e-05
603,0.00545691558532417,8.07561770108779e-05
604,0.0054308650624007,8.12546421822921e-05
605,0.00538446384202689,8.06167393480229e-05
606,0.00532973594591022,8.08046128358645e-05
607,0.00527039903588593,8.16151351803059e-05
608,0.00521011078450829,8.3011924964236e-05
609,0.00515380531176925,8.5197869262424e-05
610,0.00510040786117315,8.55791393665667e-05
611,0.00504127547331154,8.41842061421005e-05
612,0.00496911184862256,8.21819277446203e-05
613,0.00488900578767061,8.17360601796344e-05
614,0.00480429424997419,8.03590729268875e-05
615,0.00472924263682216,7.84089518790181e-05
616,0.00468476587440819,7.83476560937477e-05
617,0.0046700445599854,8.00504557629358e-05
618,0.00465955731552094,8.13077455696449e-05
619,0.00463157171756029,8.08988532280751e-05
620,0.00458010731171817,8.06030115129332e-05
621,0.00451261496823281,8.01551926761367e-05
622,0.00444301739055663,7.95124042352428e-05
623,0.00438689732272178,7.86332697475068e-05
624,0.00434837613627315,7.65417149170036e-05
625,0.00431510092038661,7.45520575770007e-05
626,0.00427714554779232,7.33050330974803e-05
627,0.00422953904699534,7.25805780186583e-05
628,0.00420662763342261,7.24347754496349e-05
629,0.00420746884774417,7.29962340162286e-05
630,0.00422031893581152,7.37911395612748e-05
631,0.00423514804430306,7.32871948702826e-05
632,0.00424542440287769,7.26864573038458e-05
633,0.00424349399935454,7.29460498439077e-05
634,0.00422363093588501,7.47777777620157e-05
635,0.00420504616573453,7.54403813706136e-05
636,0.00418129309639335,7.59232881756352e-05
637,0.00414079814497381,7.69070519582748e-05
638,0.00406826745904982,7.78628792111564e-05
639,0.00398400011053309,7.92688048065462e-05
640,0.00390836143866181,8.09769145138882e-05
641,0.00385458135930821,8.22790604853825e-05
642,0.00379980786330998,8.22007587021214e-05
643,0.00373975199274719,8.22031196232928e-05
644,0.0036738085495308,8.21792796396672e-05
645,0.003604592573829,8.01293837325247e-05
646,0.00354177042003721,7.90644986235884e-05
647,0.00348620073171332,7.83244597682163e-05
648,0.00344183483021334,7.70099856494419e-05
649,0.00342867031274363,7.68378498517766e-05
650,0.00343506201403216,7.62941283855409e-05
651,0.00344297754764557,7.53520570522508e-05
652,0.00342819734383374,7.44412931954564e-05
653,0.00336061678966507,7.2191265442091e-05
654,0.00322711867326871,7.09474434537238e-05
655,0.0030889452509582,7.25120030946289e-05
656,0.00311359022837132,7.6618590765515e-05
657,0.00321312561165541,8.03547396745992e-05
658,0.00329962196620181,8.33984877487873e-05
659,0.00331283576693386,8.60162534492054e-05
660,0.00331544666085392,8.65865427944619e-05
661,0.00330056140013039,8.71252597520993e-05
662,0.00327378237945959,8.81849943212144e-05
663,0.00325135758984834,8.87852784041063e-05
664,0.00324260167405009,8.92599595525747e-05
665,0.00323444222472608,8.89280391506679e-05
666,0.00322068783547729,8.79005137222735e-05
667,0.00321939184470102,8.80938865781253e-05
668,0.0032197125623934,8.8308249618485e-05
669,0.003216041888576,8.77570070149467e-05
670,0.00320790783315897,8.66025281052671e-05
671,0.0032110628397204,8.66332590595464e-05
672,0.00322654351778328,8.65599092913013e-05
673,0.00324815484322608,8.5613487095042e-05
674,0.00326382339466363,8.40180968560186e-05
675,0.00328506853478029,8.29888448113573e-05
676,0.00331290820240974,8.23043197824708e-05
677,0.00334521483862773,8.12060376273905e-05
678,0.00337762460578233,7.9400426275913e-05
679,0.00341025434574112,7.85331827280857e-05
680,0.0034462364371866,7.88734160590499e-05
681,0.00348869092017412,7.93601887674284e-05
682,0.00353064166521654,7.90729299236675e-05
683,0.0035676471022889,7.85824961766247e-05
684,0.00355336292088032,7.6342520543361e-05
685,0.00338348053162918,6.80415623073296e-05
686,0.00320914613781497,6.24549615169365e-05
687,0.00320930211059749,6.17067277595258e-05
688,0.00347166838077828,6.47318545759151e-05
689,0.00376763240201399,6.739035907892e-05
690,0.00413300089491531,7.02291487649729e-05
691,0.00455956735182554,7.2675974814807e-05
692,0.00501477650273591,7.31577281446605e-05
693,0.00551818333379924,7.49585588725268e-05
694,0.0061343304477632,8.08098812573869e-05
695,0.00688300967216492,9.16633260466301e-05
696,0.00770513047557324,0.000104980247023794
697,0.00855735779926181,0.000121475377996552
698,0.009449941707775,0.000141897238070383
699,0.0104125330466777,0.000166182387899684
700,0.0114500479418784,0.000193149765906924
701,0.0126093439925462,0.000223291949687212
702,0.0138900390826166,0.000256065324200877
703,0.0152440068349242,0.000290518188197395
704,0.0165464031491429,0.000326533396422136
705,0.0178195794001222,0.000362905988355852
706,0.0190920304842293,0.00039799146454895
707,0.0203440351709724,0.000429493548504493
708,0.0216231051422656,0.000459693895986992
709,0.0229234973043203,0.000491404684968769
710,0.0242130706235766,0.000526458448226518
711,0.0254443793557584,0.000563083192879185
712,0.0266849751919508,0.000601526482902433
713,0.0278818692415953,0.000640100944411618
714,0.0288465223684907,0.000674512615776227
715,0.0290969988852739,0.000688026337799205
716,0.0287168272212148,0.000681265325594485
717,0.028208339869976,0.000666647304819571
718,0.0286111649237573,0.000671888878139043
719,0.0304338362254202,0.000712949501149031
720,0.0330950872786343,0.000781896737024046
721,0.0354195572659373,0.000852611267361449
722,0.0359347346648574,0.000872780173138102
723,0.0361635266505182,0.000877081867656923
724,0.0369447689428926,0.000892399160913501
725,0.0382601060941815,0.000931336824730086
726,0.0393301250636578,0.00096378641353348
727,0.0402322214320302,0.000988125275172643
728,0.0412129367589951,0.00101106095744517
729,0.0425099420771003,0.00104447704756332
730,0.0440826136767864,0.00108767410588921
731,0.0459121235832572,0.00113888683164675
732,0.0478462589979172,0.00119221158578783
733,0.0492217892333865,0.00123061446561347
734,0.0500159737095237,0.00125053951134031
735,0.0505301260128617,0.00126171611107143
736,0.0512591391801834,0.00128226853078684
737,0.0517471572235227,0.00129594263282133
738,0.0521579753831029,0.00130777219178069
739,0.0526420861706138,0.00132183778594695
740,0.0531198118105531,0.00133364984529331
741,0.0538125822320581,0.0013501646336572
742,0.0545634160116315,0.00137215303827759
743,0.0551318924278021,0.00139642932680568
744,0.0555242178589106,0.0014135788982428
745,0.0558929096385837,0.00142541643151956
746,0.0562071881368756,0.00143216683028674
747,0.056304080940783,0.00143326248113624
748,0.0562230334803462,0.00143467847050252
749,0.056151817984879,0.00143620939862023
750,0.0562104463428259,0.00143805002071395
751,0.0563708501681685,0.00144304328538305
752,0.0566096878424287,0.00144890814548835
753,0.0567721842005849,0.00145329320895247
754,0.0567200421616435,0.00145464664925968
755,0.0566622287482023,0.00145706933564218
756,0.0560354358553886,0.00146946337283979
757,0.0513033370152116,0.00139862931788072
758,0.038534370392561,0.00111252220522981
759,0.0235994479469955,0.000643958366162168
760,0.016539141593501,0.00039438074006891
761,0.018863319940865,0.000455488519588698
762,0.0208302549123764,0.000500327216384566
763,0.0247544712908566,0.00058275280816962
764,0.0310796292833984,0.0007332408375142
765,0.0390905382633209,0.000950415135627487
766,0.045924146078527,0.00114607386479673
767,0.0506123677641153,0.00128706746178822
768,0.0532270743772388,0.00136937234465663
769,0.0545216660797596,0.00141047799854415
770,0.0551705902293324,0.00143062244953887
771,0.0555280016586185,0.00144454838997699
772,0.0557206580489874,0.00145571186343606
773,0.0556970882862806,0.00145751826654626
774,0.0557509510442615,0.00145577904544827
775,0.0558378289341927,0.00145742395931163
776,0.0558578794375062,0.00146241049656008
777,0.0557240527197719,0.00145746592453628
778,0.0556281943097711,0.00145226036385589
779,0.055618304438889,0.00144857940790419
780,0.0556607050001621,0.00144601724526322
781,0.0556318306550384,0.00144511169062128
782,0.0554816552400589,0.00144373555479106
783,0.0553366292864084,0.00144389604991261
784,0.0553671966120601,0.00144882942550123
785,0.0552390504702926,0.00145130455423868
786,0.0549384146109223,0.00144964750731313
787,0.0545380091369152,0.00144283386136878
788,0.0541657480448484,0.00143031885342899
789,0.0538392474204302,0.00142279890477309
790,0.0535077850222588,0.00141687114092632
791,0.0531608039662242,0.00140837221724219
792,0.0529023191928864,0.0013979639241045
793,0.0528574084863067,0.00139484468838917
794,0.0529910846725106,0.00139955020006526
795,0.053199997484684,0.00140865792976579
796,0.0534414855912328,0.00141953923690629
797,0.0534820274189115,0.00142616733849842
798,0.0532734512984753,0.00142477880477949
