"Wavelength","Rad_mean","Rad_sd"
350,0.000420551134593552,2.9053159340614e-05
351,0.000437166948977392,2.84403753588666e-05
352,0.000462104637699667,2.7467737079313e-05
353,0.000479822900233557,2.98096582202022e-05
354,0.000482330639497377,3.27391578224487e-05
355,0.000496171950217104,2.91860051173049e-05
356,0.000513479832734447,3.00885204793939e-05
357,0.000527693443145836,3.21155476173698e-05
358,0.000536291014868766,3.02548717173662e-05
359,0.000558248318266124,3.03266607564643e-05
360,0.000579798876133282,3.15506968573727e-05
361,0.000597623891371768,3.21759482911407e-05
362,0.000619806639879243,3.274841335663e-05
363,0.000640288797440007,3.24179049056158e-05
364,0.000660619553818833,3.33803823121223e-05
365,0.000681073066662066,3.45023776063397e-05
366,0.000697050022718031,3.3067706857494e-05
367,0.000714770821505226,3.29000908667202e-05
368,0.00073229985369835,3.46779102927337e-05
369,0.000746021773084067,3.59476231605715e-05
370,0.000756714908347931,3.52303989229291e-05
371,0.00076696427538991,3.5369197979058e-05
372,0.000775006098847371,3.65803945336235e-05
373,0.000777766139945015,3.46431926682602e-05
374,0.000783899627858773,3.39765619378227e-05
375,0.000792125075240619,3.48101037697002e-05
376,0.000800344045564998,3.61490131319699e-05
377,0.000806798389530741,3.57866446525199e-05
378,0.000814050939807203,3.55138617012167e-05
379,0.000823637715075165,3.56393420369154e-05
380,0.000834890320547856,3.55251001153346e-05
381,0.000841135433875024,3.65195712999279e-05
382,0.000848611466353759,3.70774909627916e-05
383,0.000859425958478823,3.82611103588721e-05
384,0.000872581956209615,3.8454358224226e-05
385,0.000884058783412911,3.60629648642398e-05
386,0.00090259783086367,3.69263681495898e-05
387,0.000928779680980369,4.05626025740768e-05
388,0.000951825483061839,4.29565068696977e-05
389,0.000973095014633145,4.13373787494095e-05
390,0.000995310494326986,4.03480157874688e-05
391,0.00102181047288468,4.34915920350513e-05
392,0.00105653696198715,4.42416229431245e-05
393,0.0010956915144925,4.59307821028005e-05
394,0.00113950600556564,4.94410942151617e-05
395,0.00119149903417565,5.12231538994806e-05
396,0.00126317923743045,5.06603186432165e-05
397,0.00134018692711834,5.24207922334729e-05
398,0.00141359805187676,5.67957210290314e-05
399,0.00148426954518072,5.82356919863738e-05
400,0.00155643505277112,5.88813943217986e-05
401,0.0016221913479967,6.1970130365517e-05
402,0.00167422380181961,6.73828884630288e-05
403,0.00171384984743781,6.70466156619958e-05
404,0.001748112772475,6.56429809602539e-05
405,0.00177636213600636,6.5833524259468e-05
406,0.00179571682121605,6.80240119259346e-05
407,0.00181006085535046,6.84328266554581e-05
408,0.00183124029252213,6.9498160744244e-05
409,0.00185943431046326,7.10501392476446e-05
410,0.00188320291868877,7.16593634179256e-05
411,0.00190790937864222,7.2336118867234e-05
412,0.00193307505280245,7.30205737552783e-05
413,0.00195693942252547,7.38814632502626e-05
414,0.00197777836932801,7.43735234930982e-05
415,0.00198889144347049,7.49830580614993e-05
416,0.00199424575956073,7.56772033914677e-05
417,0.00200157125364058,7.6527683244236e-05
418,0.00201194278430194,7.71722642426474e-05
419,0.00201726622530259,7.75061449278184e-05
420,0.0020166823733598,7.75168405950178e-05
421,0.00201714959344827,7.84321571635367e-05
422,0.0020128090120852,7.82867514217611e-05
423,0.0020066912524635,7.78558347801874e-05
424,0.00199957662611268,7.76495951195189e-05
425,0.00198191421630327,7.72851031411967e-05
426,0.00197038069542032,7.66689647943766e-05
427,0.00196618659188971,7.65840569736649e-05
428,0.0019657473830739,7.73147644442953e-05
429,0.00198245595733169,7.71089573760359e-05
430,0.00200615947309416,7.74915038249446e-05
431,0.00203522807103582,7.86831832508966e-05
432,0.00207993966410868,7.94141421388299e-05
433,0.00213182974257506,8.08453808576088e-05
434,0.00218345260538626,8.29905737039343e-05
435,0.00222975942946505,8.56217390560571e-05
436,0.00227149461978115,8.7125789055776e-05
437,0.00231090598448645,8.83406718594892e-05
438,0.00234926031902432,8.97771617391915e-05
439,0.00238742251647636,9.16798139083714e-05
440,0.00242877473239787,9.28693319471412e-05
441,0.00246612212620676,9.38964769057321e-05
442,0.0024986938026268,9.50273539877231e-05
443,0.00253643789736088,9.66134587300396e-05
444,0.00257302005076781,9.82916807196372e-05
445,0.00260474479116965,9.91020403468722e-05
446,0.00263280861021485,9.87099736193756e-05
447,0.00267392155015841,0.000100099648196505
448,0.00271334846445825,0.000101541873495547
449,0.00274713488295674,0.000102527453154088
450,0.00277947923401371,0.000103665673270457
451,0.00281000214745291,0.000104529137711595
452,0.00283395504346117,0.000105977058010982
453,0.00285152958473191,0.0001079105899055
454,0.00287241228041239,0.000107444159440241
455,0.00289739836007357,0.000107958102645669
456,0.00292368477443233,0.000108898317104311
457,0.00294808902544901,0.000109166245435671
458,0.00297592529561371,0.000110001372391384
459,0.00299856316763908,0.00011058846576654
460,0.00301339646335691,0.000111069504480675
461,0.00302445296896622,0.000112580994546029
462,0.0030308024934493,0.000111909362022836
463,0.003030672702007,0.000110930103461517
464,0.00302433594595641,0.000111098525145452
465,0.00301672374480404,0.00011011903830298
466,0.00301100134034641,0.000110280604414241
467,0.00301050582551397,0.000111107618470145
468,0.00301817355211824,0.000111386197453503
469,0.00303654628107324,0.000112782262378117
470,0.00305777823319659,0.000113963401165707
471,0.0030769657890778,0.000114486129607141
472,0.00309469075640664,0.000115787246635382
473,0.00311185304890387,0.000116446592577202
474,0.00312852312228642,0.000117812778347155
475,0.00314585275831632,0.000120232973884351
476,0.00316975467605516,0.000118991846367023
477,0.00319483089610003,0.000118849930139776
478,0.00321881335112266,0.000120540479428312
479,0.00324061431456357,0.000121970730017356
480,0.00324790727929212,0.00012142899586765
481,0.00323811812559143,0.000120402372577186
482,0.00321070875739679,0.000119660277873062
483,0.00316331402165815,0.000118791615149598
484,0.00312468145042658,0.000116165177297014
485,0.00310287501430139,0.000114473377871814
486,0.00309883771697059,0.000116487387090263
487,0.00312162727233954,0.000116109362533934
488,0.00316050888039172,0.0001163588051703
489,0.00320415603928268,0.000117578802325746
490,0.00324235215550289,0.000117174553456417
491,0.0032779233250767,0.000117089369153851
492,0.00331190857687034,0.000117694390794475
493,0.00334568336373195,0.000118580676295876
494,0.00338359907036647,0.000118881866912991
495,0.0034122184314765,0.000120021214357277
496,0.00342899944284,0.000121094006453656
497,0.00343773388653062,0.000120506802838162
498,0.00343692221562378,0.000119366028463107
499,0.00343984197010286,0.000119437864010438
500,0.00345880088047124,0.000120839247605458
501,0.00350251256371848,0.000120160351943217
502,0.00356143028941005,0.000121445288927491
503,0.00363399472669698,0.000123509822359081
504,0.0037176508794073,0.000124728508227729
505,0.00379710091161542,0.000126444523019097
506,0.0038762201089412,0.000128145185690174
507,0.00395851463777944,0.000129701296055822
508,0.00404617978259921,0.000130465562554679
509,0.0041396850743331,0.000133373546739547
510,0.00423565928125754,0.00013614624412409
511,0.00432914815144613,0.000137065672098932
512,0.00441438566544093,0.000138430817464331
513,0.00448166186572053,0.000138882388893375
514,0.00454806551337242,0.000138679400021955
515,0.00464435202651657,0.000139431059114722
516,0.00478641515830532,0.000142370427334746
517,0.00498950734734535,0.000148026265850224
518,0.0052531666890718,0.00015609421385762
519,0.00555731020634994,0.000165800932581271
520,0.00587016520323232,0.000175514169124335
521,0.00617701381910592,0.000185535211429223
522,0.00646476027555764,0.000195715660636189
523,0.00670213489094749,0.000203582591228478
524,0.00690791892120615,0.000209438848047278
525,0.00711267204489559,0.000214370429117726
526,0.00735359815647826,0.000220639118818354
527,0.00764243570389226,0.000229975818219191
528,0.00794607477495447,0.000240591083341292
529,0.00822315837722272,0.000250511823001582
530,0.0084280913695693,0.000258522276380185
531,0.00860942018218338,0.000264070999414809
532,0.00879387799650431,0.000268885493514386
533,0.008994235903956,0.000275315153530598
534,0.00919696474215016,0.000282876239920239
535,0.00936910124961287,0.000290328179516135
536,0.00948549771448597,0.000296091937408003
537,0.00953140275552869,0.0002984336898566
538,0.00955789857544005,0.00029939148280201
539,0.00959044941002503,0.000300037260145025
540,0.00964751200051978,0.000301209743485537
541,0.00975361975375563,0.000303637142896131
542,0.00988731841556728,0.000307353836309691
543,0.0100241127982736,0.000312042290547114
544,0.0101394740538672,0.000317070329796999
545,0.0102365116681904,0.000320505569861536
546,0.010322181917727,0.000323611698062446
547,0.0104017262160778,0.000327373142980492
548,0.010474057039246,0.000331240678058135
549,0.0105334420735016,0.000334188751271597
550,0.0105791252758354,0.000336125436612713
551,0.0106123654078692,0.00033738113021853
552,0.0106348932860419,0.000337597092269403
553,0.0106309638451785,0.000337014507117904
554,0.010579389333725,0.000335124616019621
555,0.0104538869624957,0.000330278148553195
556,0.0102819673577324,0.000323230463974876
557,0.0101097470987588,0.00031640514152034
558,0.00997800667304546,0.000311779979380267
559,0.00989589699078351,0.000308774178701794
560,0.0098272473551333,0.000306268256976513
561,0.00973597419448197,0.000303235668152533
562,0.00959004907403141,0.000298758948125259
563,0.00938888339325786,0.000292021746025779
564,0.00915781425312161,0.000283825346029544
565,0.00892297280021012,0.000275382803575415
566,0.00870176568394527,0.000268165397875177
567,0.00847620366839692,0.000260835323605379
568,0.00824614684097469,0.000252739764848408
569,0.00802322392351925,0.000243934312884576
570,0.00784646522719413,0.00023677254976331
571,0.00769734399858862,0.000232075183308443
572,0.00754553866107017,0.000228123791224827
573,0.00735312186880037,0.000219974799261046
574,0.00714887381298468,0.000212205160005324
575,0.00696121683344245,0.000205935662399497
576,0.00681286219507456,0.000201108455257334
577,0.00670092844637111,0.000198000959419338
578,0.00662347094155848,0.000195039507850875
579,0.00657177632441744,0.000193124120449662
580,0.00653068829560652,0.000194631834388134
581,0.0064826066698879,0.000194565093493141
582,0.00641079400666058,0.000192337732848219
583,0.00631064196117222,0.000188085861631382
584,0.00620029920013621,0.000181462957454026
585,0.00609476767713204,0.000176369832445527
586,0.00597909284057096,0.000172329101260867
587,0.00583366375416517,0.000167030765280145
588,0.00570522625232115,0.000161850422083415
589,0.00566495501203463,0.000161042833168557
590,0.00571313182590529,0.000164880638691331
591,0.00575334475375712,0.000167718242781276
592,0.00575426383409649,0.00016964432262591
593,0.005729449049104,0.000170675670991493
594,0.00570480408612639,0.000171331991123724
595,0.00568134777015075,0.00017340971524153
596,0.00564052628818899,0.000174117138981832
597,0.00558107775403187,0.000172765779507358
598,0.0055165812605992,0.000170325860952819
599,0.00544892516219988,0.000166735957252033
600,0.00539143120404333,0.000163439734416932
601,0.00535844434052706,0.000161576450861523
602,0.00536678827134892,0.000160898976955788
603,0.0053746911464259,0.000161125740839913
604,0.00536190547980368,0.000160645281955583
605,0.00532178967259824,0.000157818080255579
606,0.00526647134684026,0.000155900726213792
607,0.00520332877989858,0.00015502741059923
608,0.00514032219769433,0.000154498596462933
609,0.00508687378372997,0.000152982325103135
610,0.0050383972376585,0.000151896688948582
611,0.00498438269365579,0.000150695051551877
612,0.00491597989574075,0.000148746832222733
613,0.00483689367072657,0.000147125712420623
614,0.00474861964466982,0.000144899955025084
615,0.0046663576469291,0.000142180344279692
616,0.00461450278759003,0.000140008147242383
617,0.00459809313993901,0.00014002192468454
618,0.00459256314206868,0.000140812252382521
619,0.00457441980135627,0.000140906229665109
620,0.00453328084433451,0.000139838049116251
621,0.00447095910552889,0.000137334403572989
622,0.0044007523660548,0.000134223458760355
623,0.00434072731179185,0.00013168594483111
624,0.00429892598767765,0.000131016861092694
625,0.00426487624179572,0.000131329435359231
626,0.00422899110242724,0.000131598527448182
627,0.00418505317647941,0.000130710789443947
628,0.00416710020159371,0.000130453572221345
629,0.00416981008951552,0.000130562439822634
630,0.00417831254890189,0.000130379985698195
631,0.00418595051392913,0.000131079071743752
632,0.00419199110707268,0.000131600824214448
633,0.00418964363634586,0.000131372084226283
634,0.00416977114626206,0.000130347500394503
635,0.00414480273495428,0.000128787698907447
636,0.00410861058859155,0.000127433854073465
637,0.00405093924957328,0.000125906250557014
638,0.00395618069102056,0.000121854200748971
639,0.00385957896127366,0.000119231227352317
640,0.00378059311886318,0.000118206947820923
641,0.0037112392380368,0.00011754992409548
642,0.0035703222034499,0.000117695575070749
643,0.00323375173844397,0.000112736126698556
644,0.00264697286766022,9.90078256924788e-05
645,0.00184250708902255,7.55903629300901e-05
646,0.00110013039258774,4.81162384837018e-05
647,0.000571727449714672,2.62083945342199e-05
648,0.000303255716426065,1.63661932033415e-05
649,0.000180903800064698,1.15297405090412e-05
650,0.000131662622079602,1.09072640659901e-05
651,0.000111542036829633,1.15322375269006e-05
652,0.000100561700965045,1.06034396717702e-05
653,9.30651560338447e-05,9.99982972143383e-06
654,8.69058275930001e-05,1.066742535725e-05
655,8.23827624662954e-05,1.14112599623912e-05
656,8.19637340828194e-05,1.00525472615095e-05
657,7.81957897015673e-05,9.26791713006345e-06
658,7.6385536503949e-05,1.10229902846549e-05
659,8.18037565113627e-05,1.19493328867506e-05
660,8.33334752132942e-05,1.06992674459789e-05
661,8.38166132234619e-05,1.0047148210768e-05
662,8.5352046717162e-05,1.11703005693783e-05
663,8.91373789636418e-05,1.09311124346742e-05
664,9.59935411992774e-05,1.02794478053654e-05
665,0.000102499327840633,1.16766730886856e-05
666,0.000106898949779861,1.28307991365647e-05
667,0.000112070926770684,1.13772494596885e-05
668,0.00012124422864872,9.97806060111622e-06
669,0.000132340278796619,1.09371774866003e-05
670,0.000141698384613846,1.12889571837287e-05
671,0.000150825796154095,1.04224301898211e-05
672,0.000161821248111664,1.06033268383644e-05
673,0.000174613171839155,1.108791418261e-05
674,0.000186797061396646,1.12229808065507e-05
675,0.000199462549062446,1.19437767919157e-05
676,0.00021563780712313,1.28060631054799e-05
677,0.00023596679646289,1.29586589412452e-05
678,0.000253530109621352,1.44607293596004e-05
679,0.000270205856431858,1.48373702376342e-05
680,0.000286040270220838,1.43351754527725e-05
681,0.000300609630503459,1.48883904606338e-05
682,0.000317190882196883,1.41741744864668e-05
683,0.000328953583666589,1.4731478185131e-05
684,0.000334163613588316,1.61941986023617e-05
685,0.000339441715623252,1.62095427349528e-05
686,0.000343196318135597,1.62208105017232e-05
687,0.000344923521770397,1.66680520104744e-05
688,0.000344347045320319,1.68947915256486e-05
689,0.00034147211103118,1.55747573187757e-05
690,0.000336607897479553,1.60315458209463e-05
691,0.000332807828381192,1.67907415163835e-05
692,0.000333884640567703,1.60046724920881e-05
693,0.000332024760718923,1.55283861468235e-05
694,0.000331776500534033,1.56557315062362e-05
695,0.000334545663208701,1.59312238410129e-05
696,0.000333460234978702,1.58943937489302e-05
697,0.000336046706943307,1.57865999417725e-05
698,0.000339731375279371,1.64682489725225e-05
699,0.000340885601181071,1.70496382213547e-05
700,0.0003453443016042,1.61801289130536e-05
701,0.000353255860536592,1.58628570477316e-05
702,0.00036032603806234,1.62108848080709e-05
703,0.000360242193273734,1.70671163536222e-05
704,0.000366686924826354,1.70054453140621e-05
705,0.000376026142039336,1.73772907324012e-05
706,0.000383845153264701,1.76575470952821e-05
707,0.000389329283643747,1.70244188849174e-05
708,0.000399819281010423,1.76762902385097e-05
709,0.000413126310013467,1.84588128869563e-05
710,0.000424341129983077,1.83885219911457e-05
711,0.00043355466084904,1.76051193730014e-05
712,0.000445801085152198,1.9021603055794e-05
713,0.000461082969413837,2.10031342873483e-05
714,0.000474948632909218,2.000778469629e-05
715,0.000489044294517953,2.0263942624127e-05
716,0.00050421737760189,2.0968755260384e-05
717,0.000520197246078169,2.18542609150565e-05
718,0.000534538699575933,2.2253516603139e-05
719,0.000549737399851438,2.27206541977044e-05
720,0.000564027903747046,2.33570313144645e-05
721,0.000575663473136956,2.45301861586495e-05
722,0.000591095142299309,2.53271548236419e-05
723,0.00060515438526636,2.57563667048102e-05
724,0.000617378947790712,2.61054264400217e-05
725,0.000631749428575859,2.62336598407648e-05
726,0.000644280010310467,2.5929604990896e-05
727,0.000655980067676865,2.66814592422073e-05
728,0.000668471848475747,2.77144555323648e-05
729,0.000683213344309479,2.81871264380357e-05
730,0.000694982334971428,2.81740569063141e-05
731,0.000705118013720494,2.83582903982092e-05
732,0.000716128693020437,2.87931848313599e-05
733,0.000723055418638978,2.84888727390549e-05
734,0.000729865173634607,2.94831607758337e-05
735,0.000737879117659759,3.09506380185924e-05
736,0.000745478730823379,3.01480873289945e-05
737,0.000748482685303315,2.98348233122396e-05
738,0.000749921521055512,3.02547706591868e-05
739,0.000751571303990204,3.0626268604103e-05
740,0.000750441267446149,3.05965211395727e-05
741,0.000745592758757994,3.0867118564142e-05
742,0.000738226990797557,3.0841915282161e-05
743,0.000730150902818423,2.99034573159389e-05
744,0.000722292111604474,2.91614913753701e-05
745,0.000708145001844969,2.84933486570523e-05
746,0.000689939996809699,2.80226237392721e-05
747,0.000675867596291937,2.86800740358037e-05
748,0.000659118387557101,2.83408654156955e-05
749,0.00064052801404614,2.73150996104485e-05
750,0.000621458785899449,2.59198327987566e-05
751,0.0006022609770298,2.52857936524516e-05
752,0.000584534095105482,2.5044900149491e-05
753,0.000566166592907393,2.44717838268529e-05
754,0.000545822058775229,2.30460973345651e-05
755,0.000529238398739835,2.16831339614353e-05
756,0.00051161801427952,2.11215490659923e-05
757,0.000493109063099837,2.1485984137838e-05
758,0.000476601668488001,2.07361230932311e-05
759,0.0004601931477373,1.96265035363741e-05
760,0.000443245710630436,1.89179126780218e-05
761,0.000425873352360213,1.91095956574173e-05
762,0.000408997843187535,1.89557544010882e-05
763,0.000392547757801367,1.790897624227e-05
764,0.000376019070390612,1.74574881590707e-05
765,0.000359508522087708,1.85972942088703e-05
766,0.000345455294009298,1.59854274928467e-05
767,0.000328526654921006,1.47269302284974e-05
768,0.000311352233838989,1.4645739995823e-05
769,0.000298510182765312,1.46282914322204e-05
770,0.000283155774668558,1.45881094546312e-05
771,0.000269704559541424,1.39911103577764e-05
772,0.000259308538734331,1.33039792170063e-05
773,0.000249298649723642,1.35947003644857e-05
774,0.000237953193864087,1.26908240184764e-05
775,0.000226548756254488,1.26665518061223e-05
776,0.00021693907045119,1.2714884178205e-05
777,0.00021114051945915,1.13015533164455e-05
778,0.000202813387004426,1.08815071014753e-05
779,0.000193856561381835,1.12549875064601e-05
780,0.000187651539235958,1.2126609236884e-05
781,0.000182725902777747,1.10971198110876e-05
782,0.000176064091792796,1.06146113064491e-05
783,0.000169002509283018,1.06549397454275e-05
784,0.0001651114392007,1.17128457645083e-05
785,0.000162975017519784,1.00368660948905e-05
786,0.000158821754521341,1.01146230933656e-05
787,0.000153331069523119,1.19811729917889e-05
788,0.000152252252519247,1.05325472614662e-05
789,0.000147610089807131,1.05835018105661e-05
790,0.000142998352748691,1.18747825041164e-05
791,0.000141022859679651,1.26992721164738e-05
